# Beryllium Flux AMS-02
#
# taken from:   XSCRC 2017
#
#
# Column  1: Kin Energery in GeV/n
# Column  2: Flux (GeV/n)^2.7 in GeV/n+2.7 m-2 sr-1 s-1 GeV/n-1
# Column  3:
# Column  4:
# Column5/6: Flux Error
#
0.532651    0.27753     0     0     0.01655       0.01655
0.637358    0.30401     0     0     0.0190325     0.0190325
0.751989    0.345385    0     0     0.0190325     0.0190325
0.881014    0.395035    0     0     0.0173775     0.0173775
1.02134     0.447995    0     0     0.018205      0.018205
1.18819     0.51254     0     0     0.01986       0.01986
1.36297     0.583705    0     0     0.0173775     0.0173775
1.56347     0.664799    0     0     0.0190325     0.0190325
1.78088     0.754169    0     0     0.01986       0.01986
2.02139     0.840229    0     0     0.01986       0.01986
2.2783      0.927944    0     0     0.018205      0.018205
2.57692     1.01566     0     0     0.021515      0.021515
2.88406     1.09344     0     0     0.021515      0.021515
3.22782     1.16295     0     0     0.02317       0.02317
3.58721     1.24736     0     0     0.024825      0.024825
3.97261     1.3268      0     0     0.0289624     0.0289624
4.39942     1.37148     0     0     0.0281349     0.0281349
4.87208     1.42444     0     0     0.0289624     0.0289624
5.37658     1.49395     0     0     0.0330999     0.0330999
5.8917      1.53202     0     0     0.0339274     0.0339274
6.47893     1.57505     0     0     0.0339274     0.0339274
7.04987     1.60484     0     0     0.0380649     0.0380649
7.72531     1.66773     0     0     0.0388924     0.0388924
8.43572     1.66773     0     0     0.0388924     0.0388924
9.24394     1.70248     0     0     0.0413749     0.0413749
10.0232     1.71076     0     0     0.0422024     0.0422024
10.9449     1.70248     0     0     0.0388924     0.0388924
11.9094     1.70579     0     0     0.0405474     0.0405474
12.8681     1.71407     0     0     0.0422024     0.0422024
14.002      1.6909      0     0     0.0422024     0.0422024
15.1824     1.71903     0     0     0.0430299     0.0430299
16.4045     1.68759     0     0     0.0430299     0.0430299
17.7874     1.63959     0     0     0.0405474     0.0405474
19.2191     1.676       0     0     0.0446849     0.0446849
20.7661     1.64456     0     0     0.0455124     0.0455124
22.4376     1.60815     0     0     0.0438574     0.0438574
24.1585     1.55188     0     0     0.0422024     0.0422024
26.1031     1.57505     0     0     0.0455124     0.0455124
28.1051     1.53367     0     0     0.0455124     0.0455124
30.3674     1.4774      0     0     0.0446849     0.0446849
32.5816     1.43603     0     0     0.0455124     0.0455124
35.0805     1.41286     0     0     0.0446849     0.0446849
37.771      1.42113     0     0     0.0479949     0.0479949
40.6679     1.33507     0     0     0.0463399     0.0463399
43.787      1.36155     0     0     0.0471674     0.0471674
47.1453     1.37148     0     0     0.0504774     0.0504774
50.7612     1.30859     0     0     0.0504774     0.0504774
54.8471     1.25729     0     0     0.0504774     0.0504774
59.2619     1.22088     0     0     0.0529599     0.0529599
64.032      1.23577     0     0     0.0529599     0.0529599
69.4299     1.13813     0     0     0.0513049     0.0513049
75.8147     1.13978     0     0     0.0554424     0.0554424
82.4957     1.0951      0     0     0.0554424     0.0554424
90.7181     1.09179     0     0     0.0587524     0.0587524
99.0605     1.06034     0     0     0.0604074     0.0604074
110.09      0.974284    0     0     0.0604074     0.0604074
121.918     1.014       0     0     0.0637174     0.0637174
136.449     0.977594    0     0     0.0653724     0.0653724
153.251     0.980904    0     0     0.0686824     0.0686824
175.177     0.878294    0     0     0.0678549     0.0678549
203.795     0.891534    0     0     0.0744749     0.0744749
238.761     0.989179    0     0     0.0893698     0.0893698
292.822     0.886569    0     0     0.0885423     0.0885423
379.921     0.778994    0     0     0.0935073     0.0935073
530.735     0.50261     0     0     0.143985      0.143985
912.492     0.706174    0     0     0.227562      0.227562
# EoF
