# Boron Flux AMS-02
#
# taken from:   XSCRC 2017
#
#
# Column  1: Kin Energery in GeV/n
# Column  2: Flux (GeV/n)^2.7 in GeV/n+2.7 m-2 sr-1 s-1 GeV/n-1
# Column  3:
# Column  4:
# Column5/6: Flux Error
#
0.533271    0.23249     0     0     0.0392348     0.0392348
0.637889    0.335927    0     0     0.0428016     0.0428016
0.749747    0.475032    0     0     0.0374514     0.0374514
0.884321    0.624838    0     0     0.0410182     0.0410182
1.0213      0.806744    0     0     0.0428016     0.0428016
1.19199     1.01362     0     0     0.0410182     0.0410182
1.36219     1.22406     0     0     0.0410182     0.0410182
1.56767     1.4666      0     0     0.0410182     0.0410182
1.78524     1.71271     0     0     0.0428016     0.0428016
2.02587     1.95882     0     0     0.0499351     0.0499351
2.29088     2.20136     0     0     0.0535019     0.0535019
2.57241     2.42607     0     0     0.0588521     0.0588521
2.87842     2.65435     0     0     0.0624189     0.0624189
3.23217     2.86835     0     0     0.0695525     0.0695525
3.60398     3.07879     0     0     0.0677691     0.0677691
3.97644     3.26783     0     0     0.0749027     0.0749027
4.40282     3.41051     0     0     0.0749027     0.0749027
4.89209     3.59241     0     0     0.0802529     0.0802529
5.37874     3.69585     0     0     0.0838197     0.0838197
5.89308     3.80642     0     0     0.0891699     0.0891699
6.45659     3.89916     0     0     0.0909533     0.0909533
7.07399     3.98119     0     0     0.0891699     0.0891699
7.72325     4.07393     0     0     0.0927367     0.0927367
8.4321     4.0882       0     0     0.0909533     0.0909533
9.23841     4.14527     0     0     0.0927367     0.0927367
10.051     4.15953      0     0     0.0980869     0.0980869
10.9734     4.17023     0     0     0.0945201     0.0945201
11.8967     4.19877     0     0     0.101654      0.101654
12.8977     4.11673     0     0     0.0945201     0.0945201
13.9829     4.06323     0     0     0.0945201     0.0945201
15.2128     4.0561      0     0     0.0945201     0.0945201
16.3773     3.93482     0     0     0.0927367     0.0927367
17.8177     3.89202     0     0     0.0891699     0.0891699
19.1817     3.89559     0     0     0.0945201     0.0945201
20.7956     3.84209     0     0     0.0909533     0.0909533
22.3875     3.66732     0     0     0.0963035     0.0963035
24.186      3.62451     0     0     0.0963035     0.0963035
26.221      3.53178     0     0     0.0891699     0.0891699
28.0306     3.48541     0     0     0.0945201     0.0945201
30.2825     3.37484     0     0     0.0927367     0.0927367
32.4863     3.31064     0     0     0.0873865     0.0873865
35.2197     3.2928      0     0     0.0909533     0.0909533
37.7828     3.1323      0     0     0.0909533     0.0909533
40.8182     3.13586     0     0     0.0963035     0.0963035
43.7887     2.93612     0     0     0.0909533     0.0909533
47.3066     2.91472     0     0     0.0945201     0.0945201
50.9279     2.91472     0     0     0.0980869     0.0980869
55.0193     2.73995     0     0     0.103437     0.103437
59.231     2.59728      0     0     0.0963035    0.0963035
63.9895     2.72211     0     0     0.107004     0.107004
69.3735     2.62938     0     0     0.107004     0.107004
75.4752     2.57944     0     0     0.107004     0.107004
82.6923     2.38327     0     0     0.103437     0.103437
90.5996     2.58658     0     0     0.117704     0.117704
99.263      2.3797      0     0     0.110571     0.110571
109.907     2.23346     0     0     0.123054     0.123054
122.12      2.06939     0     0     0.121271     0.121271
136.647     2.05156     0     0     0.121271     0.121271
153.441     2.18353     0     0     0.137322     0.137322
175.351     2.01946     0     0     0.139105     0.139105
203.224     2.07296     0     0     0.156939     0.156939
238.861     1.98379     0     0     0.171206     0.171206
292.833     1.81615     0     0     0.169423     0.169423
378.422     1.74838     0     0     0.199741     0.199741
533.91      1.23833     0     0     0.340629     0.340629
913.817     1.4666      0     0     0.454767     0.454767
# EoF
