# Carbon Flux AMS-02
#
# taken from:   XSCRC 2017
#
#
# Column  1: Rigidity in GV
# Column  2: Flux R^2.7 in GV+2.7 m-2 sr-1 s-1 GV-1
# Column  3:
# Column  4:
# Column5/6: Flux Error
#
2.02614     9.99334     0     0     0.8994     0.8994
2.26257     13.6909     0     0     0.8994     0.8994
2.52658     17.988      0     0     0.999334   0.999334
2.81227     22.0853     0     0     0.949367   0.949367
3.1201      25.9827     0     0     1.09927    1.09927
3.46164     30.0799     0     0     1.1992     1.1992
3.82811     33.9773     0     0     1.0493     1.0493
4.21967     38.3744     0     0     1.09927    1.09927
4.65127     42.4717     0     0     1.09927    1.09927
5.1104      46.6689     0     0     1.0493     1.0493
5.61485     50.4664     0     0     0.999334   0.999334
6.14911     54.3638     0     0     1.24917    1.24917
6.75609     57.4617     0     0     1.1992     1.1992
7.42299     60.6596     0     0     1.3491     1.3491
8.10294     63.7575     0     0     1.24917    1.24917
8.87394     66.5556     0     0     1.54897    1.54897
9.6868      68.6542     0     0     1.499      1.499
10.5399     71.0526     0     0     1.59893    1.59893
11.5053     73.0513     0     0     1.54897    1.54897
12.5185     75.1499     0     0     1.74883    1.74883
13.4889     76.8488     0     0     1.7988     1.7988
14.6292     78.1479     0     0     1.69887    1.69887
15.9693     79.9467     0     0     1.7988     1.7988
17.2632     80.8461     0     0     1.84877    1.84877
18.7225     82.545      0     0     1.84877    1.84877
20.3053     83.7442     0     0     1.89873    1.89873
21.8793     84.7435     0     0     1.99867    1.99867
23.7289     85.443      0     0     1.99867    1.99867
25.6515     86.1426     0     0     1.89873    1.89873
27.7298     86.2425     0     0     1.9487     1.9487
29.8794     86.942      0     0     1.89873    1.89873
32.3003     87.7415     0     0     1.99867    1.99867
34.8042     88.541      0     0     2.04863    2.04863
37.3806     88.0413     0     0     2.0986     2.0986
40.2783     88.7408     0     0     1.89873    1.89873
43.4006     88.3411     0     0     2.0986     2.0986
46.765      88.7408     0     0     1.9487     1.9487
50.3902     88.7408     0     0     1.89873    1.89873
54.1204     89.5403     0     0     2.0986     2.0986
57.9383     89.3404     0     0     2.0986     2.0986
62.4296     88.2412     0     0     2.04863    2.04863
67.2691     89.0406     0     0     2.14857    2.14857
72.2488     88.0413     0     0     2.0986     2.0986
77.8495     88.2412     0     0     2.0986     2.0986
83.3414     88.2412     0     0     2.14857    2.14857
89.5109     88.9407     0     0     2.14857    2.14857
96.4497     87.8414     0     0     2.19853    2.19853
103.926     88.9407     0     0     2.19853    2.19853
111.62      86.7422     0     0     2.19853    2.19853
120.663     88.2412     0     0     2.34843    2.34843
129.596     86.6422     0     0     2.29847    2.29847
141.008     87.4417     0     0     2.29847    2.29847
153.426     86.3424     0     0     2.44837    2.44837
167.48      86.7422     0     0     2.29847    2.29847
183.415     87.1419     0     0     2.44837    2.44837
200.868     85.7428     0     0     2.3984     2.3984
221.413     86.4424     0     0     2.44837    2.44837
246.448     86.1426     0     0     2.5483     2.5483
275.206     89.8401     0     0     2.6982     2.6982
310.327     87.6416     0     0     2.6982     2.6982
353.354     88.6409     0     0     2.94803    2.94803
408.931     88.6409     0     0     3.19787    3.19787
480.993     87.9414     0     0     3.39773    3.39773
588.227     91.7388     0     0     3.8974     3.8974
762.653     97.0353     0     0     5.04664    5.04664
1068.92     92.4384     0     0     6.94537    6.94537
1832.17     101.532     0     0     10.0933    10.0933
