# AMS-02 Electron
#
# Taken from
# http://dx.doi.org/10.1103/PhysRevLett.113.121102
#
# Column 1: Energy (GeV)
# Column 2: upper bin
# Column 3: upper bin
# Column 4: flux
# Column 5: error
# Column 6: error
#
#
# E             Emin            Emax            flux            upper           lower       #
#############################################################################################
5.7000e-1       5.0000e-1       6.5000e-1       1.4700e+1       1.6279e+0       1.6279e+0 
7.3000e-1       6.5000e-1       8.2000e-1       2.4300e+1       1.6125e+0       1.6125e+0 
9.1000e-1       8.2000e-1       1.0100e+0       2.0800e+1       1.4036e+0       1.4036e+0 
1.1100e+0       1.0100e+0       1.2200e+0       1.8300e+1       1.2042e+0       1.2042e+0 
1.3300e+0       1.2200e+0       1.4600e+0       1.6400e+1       9.0000e-1       9.0000e-1 
1.5800e+0       1.4600e+0       1.7200e+0       1.3700e+1       7.0000e-1       7.0000e-1 
1.8500e+0       1.7200e+0       2.0000e+0       1.1100e+1       5.0000e-1       5.0000e-1 
2.1500e+0       2.0000e+0       2.3100e+0       8.9400e+0       4.0012e-1       4.0012e-1 
2.4700e+0       2.3100e+0       2.6500e+0       7.1000e+0       3.0017e-1       3.0017e-1 
2.8200e+0       2.6500e+0       3.0000e+0       5.4900e+0       2.2023e-1       2.2023e-1 
3.1700e+0       3.0000e+0       3.3600e+0       4.6100e+0       1.7029e-1       1.7029e-1 
3.5400e+0       3.3600e+0       3.7300e+0       3.6200e+0       1.3038e-1       1.3038e-1 
3.9200e+0       3.7300e+0       4.1200e+0       2.8700e+0       1.0000e-1       1.0000e-1 
4.3200e+0       4.1200e+0       4.5400e+0       2.2700e+0       8.0000e-2       8.0000e-2 
4.7600e+0       4.5400e+0       5.0000e+0       1.8000e+0       6.0000e-2       6.0000e-2 
5.2400e+0       5.0000e+0       5.4900e+0       1.4200e+0       4.0000e-2       4.0000e-2 
5.7400e+0       5.4900e+0       6.0000e+0       1.1100e+0       3.0000e-2       3.0000e-2 
6.2600e+0       6.0000e+0       6.5400e+0       8.8000e-1       2.5020e-2       2.5020e-2 
6.8100e+0       6.5400e+0       7.1000e+0       6.9500e-1       2.0025e-2       2.0025e-2 
7.3900e+0       7.1000e+0       7.6900e+0       5.5100e-1       1.5033e-2       1.5033e-2 
7.9900e+0       7.6900e+0       8.3000e+0       4.3600e-1       1.2042e-2       1.2042e-2 
8.6200e+0       8.3000e+0       8.9500e+0       3.5000e-1       1.0050e-2       1.0050e-2 
9.2800e+0       8.9500e+0       9.6200e+0       2.7800e-1       8.0623e-3       8.0623e-3 
9.9600e+0       9.6200e+0       1.0300e+1       2.2400e-1       6.0828e-3       6.0828e-3 
1.0700e+1       1.0300e+1       1.1000e+1       1.7900e-1       4.0000e-3       4.0000e-3 
1.1400e+1       1.1000e+1       1.1800e+1       1.4700e-1       3.0000e-3       3.0000e-3 
1.2200e+1       1.1800e+1       1.2600e+1       1.1900e-1       3.0000e-3       3.0000e-3 
1.3000e+1       1.2600e+1       1.3400e+1       9.7300e-2       2.3195e-3       2.3195e-3 
1.3800e+1       1.3400e+1       1.4200e+1       7.9700e-2       1.9235e-3       1.9235e-3 
1.4700e+1       1.4200e+1       1.5100e+1       6.5600e-2       1.5133e-3       1.5133e-3 
1.5600e+1       1.5100e+1       1.6100e+1       5.3900e-2       1.3153e-3       1.3153e-3 
1.6500e+1       1.6100e+1       1.7000e+1       4.4800e-2       1.1180e-3       1.1180e-3 
1.7500e+1       1.7000e+1       1.8000e+1       3.7100e-2       9.2195e-4       9.2195e-4 
1.8500e+1       1.8000e+1       1.9000e+1       3.1000e-2       7.0711e-4       7.0711e-4 
1.9500e+1       1.9000e+1       2.0000e+1       2.5900e-2       6.0828e-4       6.0828e-4 
2.0600e+1       2.0000e+1       2.1100e+1       2.1700e-2       5.0990e-4       5.0990e-4 
2.1700e+1       2.1100e+1       2.2200e+1       1.8200e-2       4.1231e-4       4.1231e-4 
2.2800e+1       2.2200e+1       2.3400e+1       1.5600e-2       4.1231e-4       4.1231e-4 
2.4000e+1       2.3400e+1       2.4600e+1       1.3100e-2       3.1623e-4       3.1623e-4 
2.5200e+1       2.4600e+1       2.5900e+1       1.1100e-2       3.1623e-4       3.1623e-4 
2.6600e+1       2.5900e+1       2.7200e+1       9.4200e-3       2.3770e-4       2.3770e-4 
2.8000e+1       2.7200e+1       2.8700e+1       7.9400e-3       2.0616e-4       2.0616e-4 
2.9400e+1       2.8700e+1       3.0200e+1       6.7400e-3       1.7720e-4       1.7720e-4 
3.1000e+1       3.0200e+1       3.1800e+1       5.6200e-3       1.4560e-4       1.4560e-4 
3.2700e+1       3.1800e+1       3.3500e+1       4.7300e-3       1.2649e-4       1.2649e-4 
3.4400e+1       3.3500e+1       3.5400e+1       3.9200e-3       1.0440e-4       1.0440e-4 
3.6300e+1       3.5400e+1       3.7300e+1       3.3700e-3       9.4868e-5       9.4868e-5 
3.8300e+1       3.7300e+1       3.9400e+1       2.8300e-3       7.6158e-5       7.6158e-5 
4.0500e+1       3.9400e+1       4.1600e+1       2.3400e-3       6.3246e-5       6.3246e-5 
4.2800e+1       4.1600e+1       4.4000e+1       2.0100e-3       5.3852e-5       5.3852e-5 
4.5300e+1       4.4000e+1       4.6600e+1       1.6300e-3       4.4721e-5       4.4721e-5 
4.7900e+1       4.6600e+1       4.9300e+1       1.3800e-3       4.4721e-5       4.4721e-5 
5.0800e+1       4.9300e+1       5.2300e+1       1.1400e-3       3.1623e-5       3.1623e-5 
5.3900e+1       5.2300e+1       5.5600e+1       9.3500e-4       2.8636e-5       2.8636e-5 
5.7300e+1       5.5600e+1       5.9100e+1       7.6100e-4       2.3259e-5       2.3259e-5 
6.1000e+1       5.9100e+1       6.3000e+1       6.3200e-4       2.0125e-5       2.0125e-5 
6.5100e+1       6.3000e+1       6.7300e+1       5.0500e-4       1.6125e-5       1.6125e-5 
6.9600e+1       6.7300e+1       7.2000e+1       3.9200e-4       1.3038e-5       1.3038e-5 
7.4600e+1       7.2000e+1       7.7400e+1       3.2600e-4       1.1662e-5       1.1662e-5 
8.0300e+1       7.7400e+1       8.3400e+1       2.5400e-4       9.4340e-6       9.4340e-6 
8.6700e+1       8.3400e+1       9.0200e+1       2.0300e-4       7.2111e-6       7.2111e-6 
9.4000e+1       9.0200e+1       9.8100e+1       1.5600e-4       5.8310e-6       5.8310e-6 
1.0300e+2       9.8100e+1       1.0700e+2       1.2300e-4       5.0000e-6       5.0000e-6 
1.1300e+2       1.0700e+2       1.1800e+2       9.0200e-5       3.7443e-6       3.7443e-6 
1.2500e+2       1.1800e+2       1.3200e+2       6.5900e-5       2.8018e-6       2.8018e-6 
1.4000e+2       1.3200e+2       1.4900e+2       4.3200e-5       2.0000e-6       2.0000e-6 
1.5900e+2       1.4900e+2       1.7000e+2       3.0200e-5       1.4213e-6       1.4213e-6 
1.8300e+2       1.7000e+2       1.9800e+2       1.9300e-5       9.8995e-7       9.8995e-7 
2.1600e+2       1.9800e+2       2.3700e+2       1.1100e-5       6.4031e-7       6.4031e-7 
2.6200e+2       2.3700e+2       2.9000e+2       6.6400e-6       4.3841e-7       4.3841e-7 
3.2700e+2       2.9000e+2       3.7000e+2       3.1500e-6       2.6870e-7       2.6870e-7 
4.2900e+2       3.7000e+2       5.0000e+2       1.2100e-6       1.3454e-7       1.3454e-7 
5.8900e+2       5.0000e+2       7.0000e+2       4.5300e-7       9.4847e-8       9.4847e-8
#
#
# end