# AMS-02 Proton flux
#
# Taken from
# http://dx.doi.org/10.1103/PhysRevLett.115.211101
#
# Column 1: Rigidity [GV] from
# Column 2: Rigidity [GV] to
# Column 3: Flux [m-2 · sr-1 · s-1 · GV-1]
# Column 4: sigma stat
# Column 5: sigma trig
# Column 6: sigma acc
# Column 7: sigma unf
# Column 8: sigma scale
# Column 9: sigma syst
# Column10: Factor (for columns 3-9)
#
####################################################################################
#   R1     R2     Phi    stat     trig    acc     unf    scale    syst   factor    #
####################################################################################
   1.92   2.15   6.031   0.007   0.002   0.106   0.054   0.012   0.120   1e1
   2.15   2.40   5.657   0.006   0.001   0.087   0.046   0.008   0.098   1e1
   2.40   2.67   5.174   0.005   0.001   0.073   0.036   0.004   0.082   1e1
   2.67   2.97   4.694   0.004   0.001   0.063   0.031   0.003   0.070   1e1
   2.97   3.29   4.176   0.004   0.001   0.055   0.026   0.004   0.061   1e1
   3.29   3.64   3.650   0.003   0.001   0.048   0.022   0.005   0.053   1e1
   3.64   4.02   3.145   0.003   0.001   0.041   0.018   0.005   0.045   1e1
   4.02   4.43   2.671   0.002   0.001   0.035   0.014   0.005   0.038   1e1
   4.43   4.88   2.250   0.002   0.001   0.029   0.012   0.005   0.032   1e1
   4.88   5.37   1.876   0.001   0.001   0.024   0.010   0.004   0.027   1e1
   5.37   5.90   1.555   0.001   0.001   0.020   0.008   0.004   0.022   1e1
   5.90   6.47   1.282   0.001   0.001   0.016   0.007   0.003   0.018   1e1
   6.47   7.09   1.054   0.001   0.001   0.013   0.006   0.003   0.015   1e1
   7.09   7.76   8.646   0.006   0.005   0.108   0.046   0.026   0.120   1e0
   7.76   8.48   7.081   0.005   0.004   0.087   0.038   0.022   0.098   1e0
   8.48   9.26   5.786   0.004   0.003   0.071   0.031   0.019   0.079   1e0
   9.26   10.1   4.740   0.004   0.003   0.058   0.025   0.016   0.065   1e0
   10.1   11.0   3.866   0.003   0.002   0.047   0.020   0.013   0.053   1e0
   11.0   12.0   3.138   0.003   0.002   0.038   0.017   0.011   0.043   1e0
   12.0   13.0   2.566   0.002   0.001   0.031   0.014   0.009   0.035   1e0
   13.0   14.1   2.100   0.002   0.001   0.025   0.011   0.008   0.029   1e0
   14.1   15.3   1.711   0.002   0.001   0.020   0.009   0.006   0.023   1e0
   15.3   16.6   1.395   0.001   0.001   0.017   0.007   0.005   0.019   1e0
   16.6   18.0   1.134   0.001   0.001   0.014   0.006   0.004   0.015   1e0
   18.0   19.5   9.241   0.010   0.007   0.110   0.049   0.036   0.126   1e-1
   19.5   21.1   7.485   0.009   0.006   0.089   0.040   0.029   0.102   1e-1
   21.1   22.8   6.100   0.007   0.005   0.073   0.032   0.024   0.083   1e-1
   22.8   24.7   4.963   0.006   0.004   0.059   0.026   0.020   0.068   1e-1
   24.7   26.7   4.045   0.005   0.003   0.048   0.021   0.016   0.055   1e-1
   26.7   28.8   3.295   0.004   0.003   0.039   0.017   0.013   0.045   1e-1
   28.8   31.1   2.686   0.004   0.002   0.032   0.014   0.011   0.037   1e-1
   31.1   33.5   2.194   0.003   0.002   0.026   0.012   0.009   0.030   1e-1
   33.5   36.1   1.797   0.003   0.002   0.022   0.010   0.007   0.025   1e-1
   36.1   38.9   1.469   0.002   0.001   0.018   0.008   0.006   0.020   1e-1
   38.9   41.9   1.198   0.002   0.001   0.014   0.006   0.005   0.017   1e-1
   41.9   45.1   9.824   0.018   0.010   0.119   0.052   0.041   0.136   1e-2
   45.1   48.5   8.071   0.016   0.008   0.098   0.043   0.034   0.112   1e-2
   48.5   52.2   6.566   0.014   0.007   0.080   0.035   0.027   0.091   1e-2
   52.2   56.1   5.415   0.012   0.006   0.066   0.029   0.023   0.076   1e-2
   56.1   60.3   4.446   0.011   0.005   0.054   0.024   0.019   0.062   1e-2
   60.3   64.8   3.642   0.009   0.004   0.044   0.019   0.016   0.051   1e-2
   64.8   69.7   2.984   0.008   0.004   0.036   0.016   0.013   0.042   1e-2
   69.7   74.9   2.456   0.007   0.003   0.030   0.013   0.011   0.034   1e-2
   74.9   80.5   2.015   0.006   0.003   0.024   0.011   0.009   0.028   1e-2
   80.5   86.5   1.654   0.005   0.002   0.020   0.009   0.008   0.023   1e-2
   86.5   93.0   1.357   0.005   0.002   0.016   0.007   0.006   0.019   1e-2
   93.0   100    1.113   0.004   0.002   0.014   0.006   0.005   0.016   1e-2
   100    108    9.068   0.034   0.015   0.110   0.048   0.044   0.129   1e-3
   108    116    7.328   0.030   0.013   0.090   0.039   0.037   0.105   1e-3
   116    125    5.977   0.026   0.011   0.073   0.032   0.030   0.086   1e-3
   125    135    4.905   0.022   0.010   0.061   0.027   0.026   0.072   1e-3
   135    147    3.898   0.018   0.009   0.048   0.021   0.021   0.058   1e-3
   147    160    3.104   0.015   0.007   0.039   0.017   0.018   0.047   1e-3
   160    175    2.433   0.013   0.006   0.031   0.014   0.015   0.037   1e-3
   175    192    1.888   0.010   0.005   0.024   0.011   0.012   0.030   1e-3
   192    211    1.481   0.009   0.004   0.019   0.009   0.010   0.024   1e-3
   211    233    1.121   0.007   0.004   0.015   0.007   0.008   0.019   1e-3
   233    259    8.621   0.056   0.030   0.116   0.060   0.064   0.149   1e-4
   259    291    6.312   0.043   0.024   0.087   0.048   0.051   0.113   1e-4
   291    330    4.614   0.033   0.018   0.065   0.038   0.041   0.087   1e-4
   330    379    3.199   0.024   0.014   0.046   0.029   0.032   0.065   1e-4
   379    441    2.158   0.018   0.010   0.032   0.022   0.024   0.047   1e-4
   441    525    1.397   0.012   0.007   0.022   0.015   0.018   0.033   1e-4
   525    643    8.738   0.081   0.047   0.142   0.110   0.134   0.229   1e-5
   643    822    4.682   0.048   0.028   0.081   0.068   0.091   0.142   1e-5
   822    1130   2.288   0.025   0.015   0.042   0.040   0.060   0.085   1e-5
   1130   1800   7.980   0.100   0.060   0.161   0.182   0.310   0.398   1e-6
   1800   3000   2.147   0.038   0.019   0.047   0.069   0.134   0.159   1e-6
#
#
# End
