# Lithium Flux AMS-02
#
# taken from:   XSCRC 2017
#
#
# Column  1: Rigidity in GV
# Column  2: Flux R^2.7 in GV+2.7 m-2 sr-1 s-1 GV-1
# Column  3:
# Column  4:
# Column5/6: Flux Error
#
1.07424     0.0701439   0     0     0.233813     0.233813
1.23967     0.210432    0     0     0.561151     0.561151
1.41206     0.467626    0     0     0.315647     0.315647
1.60843     0.818345    0     0     0.17536      0.17536
1.80841     1.26259     0     0     0.210432     0.210432
2.03325     1.84712     0     0     0.210432     0.210432
2.26383     2.54856     0     0     0.210432     0.210432
2.52877     3.36691     0     0     0.222122     0.222122
2.81554     4.27878     0     0     0.210432     0.210432
3.11449     5.30755     0     0     0.222122     0.222122
3.45642     6.33633     0     0     0.233813     0.233813
3.82342     7.31835     0     0     0.222122     0.222122
4.21564     8.32374     0     0     0.233813     0.233813
4.66325     9.25899     0     0     0.233813     0.233813
5.10825     10.1709     0     0     0.210432     0.210432
5.61397     10.9424     0     0     0.245504     0.245504
6.16976     11.714      0     0     0.268885     0.268885
6.73656     12.4388     0     0     0.268885     0.268885
7.42762     13.0234     0     0     0.280576     0.280576
8.10999     13.4442     0     0     0.303957     0.303957
8.88391     13.9119     0     0     0.315647     0.315647
9.66854     14.1924     0     0     0.315647     0.315647
10.5225     14.3327     0     0     0.327338     0.327338
11.4892     14.4964     0     0     0.315647     0.315647
12.4632     14.6601     0     0     0.327338     0.327338
13.564      14.6601     0     0     0.350719     0.350719
14.6662     14.7536     0     0     0.339029     0.339029
15.9096     14.6367     0     0     0.339029     0.339029
17.3148     14.4964     0     0     0.350719     0.350719
18.7217     14.3327     0     0     0.374101     0.374101
20.243      14.1691     0     0     0.327338     0.327338
21.8879     13.8885     0     0     0.350719     0.350719
23.6665     13.8183     0     0     0.327338     0.327338
25.7567     13.5845     0     0     0.350719     0.350719
27.6689     13.3507     0     0     0.339029     0.339029
29.9172     13.0468     0     0     0.327338     0.327338
32.2431     12.7662     0     0     0.327338     0.327338
34.7498     12.2986     0     0     0.315647     0.315647
37.4513     11.9946     0     0     0.327338     0.327338
40.363      11.9245     0     0     0.292266     0.292266
43.3595     11.6439     0     0     0.292266     0.292266
46.7305     11.1061     0     0     0.315647     0.315647
50.1998     10.8489     0     0     0.292266     0.292266
54.1025     10.6385     0     0     0.315647     0.315647
57.9303     10.5216     0     0     0.315647     0.315647
62.6375     10.0773     0     0     0.315647     0.315647
67.0692     9.58633     0     0     0.315647     0.315647
72.0484     9.58633     0     0     0.315647     0.315647
77.6498     9.14209     0     0     0.315647     0.315647
83.4146     8.55755     0     0     0.292266     0.292266
89.3161     8.81475     0     0     0.350719     0.350719
96.2599     8.34712     0     0     0.327338     0.327338
103.744     7.94964     0     0     0.303957     0.303957
111.809     6.99101     0     0     0.327338     0.327338
120.501     7.59892     0     0     0.350719     0.350719
129.448     7.38849     0     0     0.350719     0.350719
140.422     7.22482     0     0     0.36241      0.36241
152.825     6.94424     0     0     0.339029     0.339029
167.408     6.73381     0     0     0.385791     0.385791
182.788     6.59353     0     0     0.374101     0.374101
200.884     6.78058     0     0     0.455935     0.455935
222.214     5.96223     0     0     0.385791     0.385791
245.009     5.93885     0     0     0.432554     0.432554
274.576     5.28417     0     0     0.397482     0.397482
309.721     5.33094     0     0     0.409173     0.409173
353.942     5.3777      0     0     0.444245     0.444245
408.447     4.7464      0     0     0.455935     0.455935
480.642     5.3777      0     0     0.561151     0.561151
578.634     4.65288     0     0     0.572842     0.572842
724.353     4.51259     0     0     0.642986     0.642986
958.363     4.11511     0     0     0.935252     0.935252
1416.37     5.23741     0     0     1.34442      1.34442
2300.49     4.27878     0     0     1.69514      1.69514
# EoF
