# Nitrogen Flux AMS-02
#
# taken from:   XSCRC 2017
#
#
# Column  1: Rigidity in GV
# Column  2: Flux R^2.7 in GV+2.7 m-2 sr-1 s-1 GV-1
# Column  3:
# Column  4:
# Column5/6: Flux Error
#
2.04086     2.56318     0     0     0.397112     0.397112
2.27833     3.75451     0     0     0.469314     0.469314
2.53643     4.90975     0     0     0.469314     0.469314
2.82378     6.06498     0     0     0.451264     0.451264
3.12642     7.25632     0     0     0.433213     0.433213
3.47104     8.48375     0     0     0.433213     0.433213
3.83249     9.63899     0     0     0.451264     0.451264
4.23158     10.6859     0     0     0.415162     0.415162
4.6594      11.9495     0     0     0.451264     0.451264
5.1446      13.0325     0     0     0.451264     0.451264
5.64915     14.0794     0     0     0.451264     0.451264
6.18614     14.9097     0     0     0.451264     0.451264
6.81156     15.9567     0     0     0.505415     0.505415
7.43855     16.5343     0     0     0.505415     0.505415
8.14564     17.3646     0     0     0.541516     0.541516
8.87099     17.9422     0     0     0.523466     0.523466
9.71424     18.4116     0     0     0.541516     0.541516
10.5793     18.8087     0     0     0.613718     0.613718
11.5213     19.3502     0     0     0.577617     0.577617
12.5128     19.4224     0     0     0.577617     0.577617
13.5895     19.9639     0     0     0.649819     0.649819
14.7184     20.1083     0     0     0.649819     0.649819
15.9411     20.361      0     0     0.649819     0.649819
17.3129     20.6137     0     0     0.631769     0.631769
18.7511     20.5415     0     0     0.703971     0.703971
20.3647     20.9025     0     0     0.703971     0.703971
21.9958     20.6498     0     0     0.66787      0.66787
23.6922     20.6498     0     0     0.613718     0.613718
25.731      20.6498     0     0     0.649819     0.649819
27.7919     20.3971     0     0     0.631769     0.631769
29.9354     20.2527     0     0     0.66787      0.66787
32.333      20.2166     0     0     0.649819     0.649819
34.8267     19.9278     0     0     0.649819     0.649819
37.5128     19.639      0     0     0.595668     0.595668
40.406      19.2058     0     0     0.649819     0.649819
43.4027     19.2058     0     0     0.631769     0.631769
46.7502     19.2419     0     0     0.613718     0.613718
50.3558     18.7004     0     0     0.577617     0.577617
54.2396     18.4838     0     0     0.505415     0.505415
58.2623     18.0144     0     0     0.613718     0.613718
62.7558     17.6895     0     0     0.595668     0.595668
67.2249     17.4007     0     0     0.613718     0.613718
72.2107     17.4007     0     0     0.631769     0.631769
77.5663     17.0758     0     0     0.613718     0.613718
83.3191     16.4982     0     0     0.595668     0.595668
89.7451     16.4982     0     0     0.649819     0.649819
96.9332     16.1011     0     0     0.66787      0.66787
104.122     15.5596     0     0     0.685921     0.685921
111.845     15.4874     0     0     0.649819     0.649819
120.14      15.5957     0     0     0.631769     0.631769
130.12      15.1986     0     0     0.649819     0.649819
141.317     15.4874     0     0     0.631769     0.631769
153.056     14.8375     0     0     0.66787      0.66787
167.605     14.8014     0     0     0.66787      0.66787
183.537     14.4043     0     0     0.685921     0.685921
201.538     14.3682     0     0     0.740072     0.740072
221.303     13.8628     0     0     0.722022     0.722022
245.697     13.8628     0     0     0.758123     0.758123
275.041     14.8014     0     0     0.758123     0.758123
309.588     13.8989     0     0     0.758123     0.758123
354.276     14.1516     0     0     0.830325     0.830325
407.652     14.4043     0     0     0.974729     0.974729
479.51      12.5993     0     0     0.902527     0.902527
587.803     13.8267     0     0     1.02888      1.02888
761.319     14.7653     0     0     1.22744      1.22744
1067.97     15.0903     0     0     2.41877      2.41877
1831.42     15.8484     0     0     3.12274      3.12274
# EoF
