# Oxygen Flux AMS-02
#
# taken from:   XSCRC 2017
#
#
# Column  1: Rigidity in GV
# Column  2: Flux R^2.7 in GV+2.7 m-2 sr-1 s-1 GV-1
# Column  3:
# Column  4:
# Column5/6: Flux Error
#
2.02486     10.4787     0     0     1.16429     1.16429
2.26294     13.4864     0     0     1.16429     1.16429
2.52902     16.4942     0     0     1.06727     1.06727
2.81767     20.3752     0     0     1.11578     1.11578
3.11994     24.3532     0     0     1.06727     1.06727
3.45463     28.6223     0     0     1.16429     1.16429
3.82523     32.6973     0     0     1.11578     1.11578
4.22252     36.7723     0     0     1.11578     1.11578
4.66108     40.9444     0     0     1.26132     1.26132
5.12932     45.2135     0     0     1.16429     1.16429
5.6272      49.0944     0     0     1.16429     1.16429
6.17341     52.7814     0     0     1.45537     1.45537
6.77263     56.1772     0     0     1.45537     1.45537
7.43002     59.5731     0     0     1.60091     1.60091
8.10103     62.6779     0     0     1.60091     1.60091
8.85995     65.7827     0     0     1.69793     1.69793
9.68998     68.4994     0     0     1.79495     1.79495
10.5325     70.7309     0     0     1.84347     1.84347
11.4837     73.3506     0     0     1.94049     1.94049
12.4822     75.6792     0     0     2.08603     2.08603
13.5257     77.6197     0     0     1.989       1.989
14.7017     79.2691     0     0     2.03752     2.03752
15.9308     81.1125     0     0     2.13454     2.13454
17.2626     82.762      0     0     2.28008     2.28008
18.7057     84.7025     0     0     2.32859     2.32859
20.2694     85.5757     0     0     2.61966     2.61966
21.8962     86.934      0     0     2.52264     2.52264
23.7267     88.1953     0     0     2.42561     2.42561
25.6309     89.3596     0     0     2.42561     2.42561
27.6879     89.9418     0     0     2.47413     2.47413
29.8179     91.0091     0     0     2.57115     2.57115
32.211      91.6882     0     0     2.57115     2.57115
34.7961     91.9793     0     0     2.42561     2.42561
37.3573     92.5614     0     0     2.42561     2.42561
40.3555     94.0168     0     0     2.57115     2.57115
43.3259     92.7555     0     0     2.61966     2.61966
46.8031     94.2109     0     0     2.81371     2.81371
50.2481     94.5019     0     0     2.66818     2.66818
54.1135     95.0841     0     0     2.71669     2.71669
57.9174     94.5019     0     0     2.71669     2.71669
62.3728     95.1811     0     0     2.7652      2.7652
67.1709     94.793      0     0     2.91074     2.91074
72.3381     96.1514     0     0     2.7652      2.7652
77.6626     95.2781     0     0     2.81371     2.81371
83.379      93.5317     0     0     2.81371     2.81371
89.5162     94.1138     0     0     2.95925     2.95925
96.1051     94.89       0     0     3.00776     3.00776
103.818     93.8228     0     0     3.00776     3.00776
111.46      94.3079     0     0     3.05627     3.05627
120.405     95.3752     0     0     2.91074     2.91074
129.668     94.89       0     0     2.95925     2.95925
140.942     96.1514     0     0     3.1533      3.1533
153.197     93.9198     0     0     3.05627     3.05627
167.549     93.7257     0     0     3.1533      3.1533
182.68      94.5019     0     0     3.10479     3.10479
200.412     94.3079     0     0     3.29884     3.29884
221.227     94.793      0     0     3.39586     3.39586
245.717     93.9198     0     0     3.39586     3.39586
274.609     95.3752     0     0     3.58991     3.58991
309.754     93.4347     0     0     3.68693     3.68693
352.648     96.3454     0     0     4.12354     4.12354
407.73      93.6287     0     0     3.97801     3.97801
480.231     97.3157     0     0     4.56016     4.56016
586.976     98.9651     0     0     4.94825     4.94825
760.802     97.9948     0     0     5.9185      5.9185
1068.54     93.5317     0     0     7.85899     7.85899
1834.34     115.653     0     0     12.031      12.031
# EoF
