# AMS-02 Electron
#
# Taken from
# http://dx.doi.org/10.1103/PhysRevLett.113.121102
#
# Column 1: Energy (GeV)
# Column 2: upper bin
# Column 3: upper bin
# Column 4: flux
# Column 5: error
# Column 6: error
#
#
# E             Emin            Emax            flux            upper           lower       #
#############################################################################################
5.7000e-1       5.0000e-1       6.5000e-1       1.3100e+0       3.0480e-1       3.0480e-1
7.3000e-1       6.5000e-1       8.2000e-1       2.3200e+0       2.8160e-1       2.8160e-1
9.1000e-1       8.2000e-1       1.0100e+0       1.9100e+0       1.5524e-1       1.5524e-1
1.1100e+0       1.0100e+0       1.2200e+0       1.5500e+0       1.0198e-1       1.0198e-1
1.3300e+0       1.2200e+0       1.4600e+0       1.3400e+0       8.0623e-2       8.0623e-2
1.5800e+0       1.4600e+0       1.7200e+0       1.0600e+0       5.0990e-2       5.0990e-2
1.8500e+0       1.7200e+0       2.0000e+0       8.0100e-1       3.8328e-2       3.8328e-2
2.1500e+0       2.0000e+0       2.3100e+0       6.1900e-1       2.8284e-2       2.8284e-2
2.4700e+0       2.3100e+0       2.6500e+0       4.5900e-1       1.9235e-2       1.9235e-2
2.8200e+0       2.6500e+0       3.0000e+0       3.4300e-1       1.4142e-2       1.4142e-2
3.1700e+0       3.0000e+0       3.3600e+0       2.7800e-1       1.1180e-2       1.1180e-2
3.5400e+0       3.3600e+0       3.7300e+0       2.1200e-1       8.0623e-3       8.0623e-3
3.9200e+0       3.7300e+0       4.1200e+0       1.6400e-1       6.0828e-3       6.0828e-3
4.3200e+0       4.1200e+0       4.5400e+0       1.2800e-1       4.1231e-3       4.1231e-3
4.7600e+0       4.5400e+0       5.0000e+0       9.8600e-2       3.2757e-3       3.2757e-3
5.2400e+0       5.0000e+0       5.4900e+0       7.7600e-2       2.4515e-3       2.4515e-3
5.7400e+0       5.4900e+0       6.0000e+0       5.9400e-2       1.8439e-3       1.8439e-3
6.2600e+0       6.0000e+0       6.5400e+0       4.6900e-2       1.4560e-3       1.4560e-3
6.8100e+0       6.5400e+0       7.1000e+0       3.7400e-2       1.1402e-3       1.1402e-3
7.3900e+0       7.1000e+0       7.6900e+0       2.9400e-2       9.2195e-4       9.2195e-4
7.9900e+0       7.6900e+0       8.3000e+0       2.3400e-2       7.2801e-4       7.2801e-4
8.6200e+0       8.3000e+0       8.9500e+0       1.9100e-2       5.3852e-4       5.3852e-4
9.2800e+0       8.9500e+0       9.6200e+0       1.5000e-2       4.4721e-4       4.4721e-4
9.9600e+0       9.6200e+0       1.0300e+1       1.2500e-2       4.1231e-4       4.1231e-4
1.0700e+1       1.0300e+1       1.1000e+1       1.0100e-2       3.1623e-4       3.1623e-4
1.1400e+1       1.1000e+1       1.1800e+1       8.3000e-3       2.3259e-4       2.3259e-4
1.2200e+1       1.1800e+1       1.2600e+1       6.8100e-3       1.9235e-4       1.9235e-4
1.3000e+1       1.2600e+1       1.3400e+1       5.7600e-3       1.6125e-4       1.6125e-4
1.3800e+1       1.3400e+1       1.4200e+1       4.6000e-3       1.3038e-4       1.3038e-4
1.4700e+1       1.4200e+1       1.5100e+1       3.8400e-3       1.0817e-4       1.0817e-4
1.5600e+1       1.5100e+1       1.6100e+1       3.3300e-3       9.4340e-5       9.4340e-5
1.6500e+1       1.6100e+1       1.7000e+1       2.8100e-3       8.6023e-5       8.6023e-5
1.7500e+1       1.7000e+1       1.8000e+1       2.3700e-3       7.2111e-5       7.2111e-5
1.8500e+1       1.8000e+1       1.9000e+1       2.0100e-3       6.4031e-5       6.4031e-5
1.9500e+1       1.9000e+1       2.0000e+1       1.7400e-3       5.0000e-5       5.0000e-5
2.0600e+1       2.0000e+1       2.1100e+1       1.4400e-3       5.0000e-5       5.0000e-5
2.1700e+1       2.1100e+1       2.2200e+1       1.2200e-3       4.2426e-5       4.2426e-5
2.2800e+1       2.2200e+1       2.3400e+1       1.0500e-3       3.6056e-5       3.6056e-5
2.4000e+1       2.3400e+1       2.4600e+1       9.3300e-4       3.1828e-5       3.1828e-5
2.5200e+1       2.4600e+1       2.5900e+1       7.8800e-4       2.7586e-5       2.7586e-5
2.6600e+1       2.5900e+1       2.7200e+1       6.6300e-4       2.4042e-5       2.4042e-5
2.8000e+1       2.7200e+1       2.8700e+1       5.9400e-4       2.1932e-5       2.1932e-5
2.9400e+1       2.8700e+1       3.0200e+1       5.2000e-4       1.9105e-5       1.9105e-5
3.1000e+1       3.0200e+1       3.1800e+1       4.3300e-4       1.6279e-5       1.6279e-5
3.2700e+1       3.1800e+1       3.3500e+1       3.7600e-4       1.4866e-5       1.4866e-5
3.4400e+1       3.3500e+1       3.5400e+1       3.2000e-4       1.2806e-5       1.2806e-5
3.6300e+1       3.5400e+1       3.7300e+1       2.6900e-4       1.1402e-5       1.1402e-5
3.8300e+1       3.7300e+1       3.9400e+1       2.4300e-4       1.0630e-5       1.0630e-5
4.0500e+1       3.9400e+1       4.1600e+1       2.1100e-4       9.2195e-6       9.2195e-6
4.2800e+1       4.1600e+1       4.4000e+1       1.7000e-4       7.8102e-6       7.8102e-6
4.5300e+1       4.4000e+1       4.6600e+1       1.5600e-4       7.2111e-6       7.2111e-6
4.7900e+1       4.6600e+1       4.9300e+1       1.2200e-4       5.8310e-6       5.8310e-6
5.0800e+1       4.9300e+1       5.2300e+1       1.0800e-4       5.8310e-6       5.8310e-6
5.3900e+1       5.2300e+1       5.5600e+1       9.3700e-5       4.9930e-6       4.9930e-6
5.7300e+1       5.5600e+1       5.9100e+1       7.5500e-5       4.2190e-6       4.2190e-6
6.1000e+1       5.9100e+1       6.3000e+1       6.5300e-5       3.7216e-6       3.7216e-6
6.5100e+1       6.3000e+1       6.7300e+1       5.4100e-5       3.2249e-6       3.2249e-6
6.9600e+1       6.7300e+1       7.2000e+1       4.7800e-5       2.8653e-6       2.8653e-6
7.4600e+1       7.2000e+1       7.7400e+1       3.8900e-5       2.4187e-6       2.4187e-6
8.0300e+1       7.7400e+1       8.3400e+1       2.8800e-5       1.9235e-6       1.9235e-6
8.6700e+1       8.3400e+1       9.0200e+1       2.7600e-5       1.8358e-6       1.8358e-6
9.4000e+1       9.0200e+1       9.8100e+1       2.0800e-5       1.4765e-6       1.4765e-6
1.0300e+2       9.8100e+1       1.0700e+2       1.5300e-5       1.1662e-6       1.1662e-6
1.1300e+2       1.0700e+2       1.1800e+2       1.1500e-5       8.9443e-7       8.9443e-7
1.2500e+2       1.1800e+2       1.3200e+2       8.5600e-6       7.3790e-7       7.3790e-7
1.4000e+2       1.3200e+2       1.4900e+2       6.2100e-6       5.8600e-7       5.8600e-7
1.5900e+2       1.4900e+2       1.7000e+2       5.2300e-6       5.0090e-7       5.0090e-7
1.8300e+2       1.7000e+2       1.9800e+2       3.1900e-6       3.4928e-7       3.4928e-7
2.1600e+2       1.9800e+2       2.3700e+2       2.0800e-6       2.5080e-7       2.5080e-7
2.6200e+2       2.3700e+2       2.9000e+2       1.2100e-6       1.8385e-7       1.8385e-7
3.2700e+2       2.9000e+2       3.7000e+2       6.1700e-7       1.2587e-7       1.2587e-7
4.2900e+2       3.7000e+2       5.0000e+2       2.4700e-7       7.6243e-8       7.6243e-8
#
#
# end