###################
# Pamela Proton Data #
###################
#
# Taken from  doi:10.1126/science.1199172
#
# Column  1:    Rigidity GV (mean)
# Column  2:    flux  (GV m2 s sr)−1
# Column  3:    sigam stat
# Column  4:    sigam sys
#
1.01     4.24E+01     0.4     2
1.06     5.32E+01     0.4     2
1.11     6.34E+01     0.4     2
1.16     7.40E+01     0.4     3
1.22     8.14E+01     0.4     3
1.27     8.84E+01     0.4     3
1.33     9.27E+01     0.4     3
1.4     9.60E+01     0.4     4
1.46     9.71E+01     0.4     4
1.53     9.73E+01     0.4     4
1.6     9.81E+01     0.4     4
1.68     9.69E+01     0.4     4
1.76     9.50E+01     0.4     4
1.84     9.25E+01     0.3     3
1.93     9.06E+01     0.3     3
2.02     8.85E+01     0.3     3
2.11     8.50E+01     0.3     3
2.21     8.08E+01     0.3     3
2.32     7.70E+01     0.3     3
2.43     7.34E+01     0.2     3
2.54     6.99E+01     0.2     3
2.66     6.54E+01     0.2     3
2.79     6.17E+01     0.2     2
2.92     5.70E+01     0.2     2
3.06     5.34E+01     0.2     2
3.2     4.98E+01     0.2     2
3.35     4.60E+01     0.2     2
3.51     4.24E+01     0.1     2
3.67     3.88E+01     0.1     2
3.85     3.61E+01     0.1     1
4.03     3.29E+01     0.1     1
4.22     3.02E+01     0.1     1
4.42     2.76E+01     0.1     1
4.63     2.51E+01     0.09     0.9
4.85     2.29E+01     0.08     0.9
5.07     2.07E+01     0.08     0.8
5.44     1.81E+01     0.05     0.7
5.96     1.47E+01     0.04     0.6
6.54     1.20E+01     0.03     0.5
7.17     9.71E+00     0.03     0.4
7.86     7.87E+00     0.03     0.3
8.62     6.36E+00     0.02     0.2
9.45     5.05E+00     0.02     0.2
10.37     4.03E+00     0.02     0.2
11.37     3.22E+00     0.01     0.1
12.46     2.59E+00     0.01     0.1
13.67     2.03E+00     0.008     0.08
14.99     1.62E+00     0.007     0.06
16.43     1.29E+00     0.006     0.05
18.02     1.00E+00     0.005     0.04
19.76     7.90E-01     0.004     0.03
21.67     6.33E-01     0.003     0.02
23.76     4.86E-01     0.003     0.02
26.05     3.80E-01     0.002     0.01
28.56     3.04E-01     0.002     0.01
31.32     2.33E-01     0.002     0.009
34.34     1.84E-01     0.001     0.007
37.66     1.43E-01     0.001     0.005
41.29     1.12E-01     0.001     0.004
45.28     8.96E-02     0.0009     0.003
49.64     6.77E-02     0.0007     0.003
54.44     5.19E-02     0.0006     0.002
59.69     4.07E-02     0.0005     0.002
65.45     3.18E-02     0.0004     0.001
71.76     2.49E-02     0.0004     0.001
78.69     1.90E-02     0.0003     0.0007
86.28     1.47E-02     0.0003     0.0006
94.6     1.21E-02     0.0002     0.0005
106.11     8.60E-03     0.0002     0.0003
121.83     5.80E-03     0.0001     0.0002
139.88     3.98E-03     0.00009     0.0002
160.61     2.75E-03     0.00007     0.0001
184.4     1.86E-03     0.00005     0.00008
211.72     1.21E-03     0.00004     0.00005
243.09     7.80E-04     0.00003     0.00003
279.11     5.60E-04     0.00002     0.00003
320.46     4.10E-04     0.00002     0.00002
367.94     2.80E-04     0.00002     0.00001
422.46     2.00E-04     0.00001     0.00001
485.05     1.40E-04     0.00001     0.000008
582.45     8.40E-05     0.000006     0.000006
749.71     5.10E-05     0.000005     0.000005
1010.33     3.00E-05     0.000007     0.000005
#
#End
