###################
# Pamela Proton Data #
###################
#
# Taken from  doi:10.1126/science.1199172
#
# Column  1:    Rigidity GV (mean)
# Column  2:    flux  (GV m2 s sr)−1
# Column  3:    sigam stat
# Column  4:    sigam sys
#
1.01     1.16E+03     2     40
1.06     1.16E+03     2     40
1.11     1.17E+03     2     40
1.16     1.16E+03     2     40
1.22     1.14E+03     2     40
1.28     1.13E+03     2     40
1.34     1.10E+03     2     40
1.4     1.07E+03     2     40
1.47     1.04E+03     2     40
1.54     9.99E+02     1     40
1.61     9.61E+02     1     40
1.68     9.19E+02     1     40
1.76     8.79E+02     1     30
1.85     8.32E+02     1     30
1.93     7.83E+02     1     30
2.02     7.38E+02     1     30
2.12     6.93E+02     0.9     30
2.22     6.47E+02     0.9     20
2.32     6.05E+02     0.8     20
2.43     5.62E+02     0.8     20
2.55     5.21E+02     0.7     20
2.67     4.81E+02     0.7     20
2.79     4.47E+02     0.6     20
2.92     4.14E+02     0.6     20
3.06     3.79E+02     0.5     10
3.21     3.48E+02     0.5     10
3.36     3.19E+02     0.5     10
3.52     2.93E+02     0.4     10
3.68     2.68E+02     0.4     10
3.86     2.43E+02     0.4     9
4.04     2.21E+02     0.3     8
4.23     2.01E+02     0.3     8
4.43     1.83E+02     0.3     7
4.74     1.58E+02     0.2     6
5.2     1.28E+02     0.2     5
5.7     1.04E+02     0.1     4
6.25     8.39E+01     0.1     3
6.86     6.74E+01     0.09     3
7.52     5.41E+01     0.08     2
8.24     4.31E+01     0.07     2
9.04     3.42E+01     0.06     1
9.91     2.72E+01     0.05     1
10.86     2.15E+01     0.04     0.8
11.91     1.70E+01     0.03     0.6
13.06     1.33E+01     0.03     0.5
14.32     1.05E+01     0.02     0.4
15.7     8.26E+00     0.02     0.3
17.22     6.46E+00     0.02     0.2
18.88     5.00E+00     0.01     0.2
20.7     3.90E+00     0.01     0.2
22.7     3.05E+00     0.009     0.1
24.89     2.37E+00     0.007     0.09
27.29     1.83E+00     0.006     0.07
29.92     1.42E+00     0.005     0.05
32.81     1.11E+00     0.004     0.04
35.97     8.49E-01     0.004     0.03
39.44     6.53E-01     0.003     0.03
43.25     5.09E-01     0.003     0.02
47.42     3.97E-01     0.002     0.02
52     3.01E-01     0.002     0.01
57.01     2.33E-01     0.002     0.009
62.51     1.78E-01     0.001     0.007
68.54     1.41E-01     0.001     0.005
75.16     1.10E-01     0.0009     0.004
82.41     8.31E-02     0.0008     0.003
90.36     6.33E-02     0.0006     0.003
101.34     4.59E-02     0.0004     0.002
116.36     3.12E-02     0.0003     0.001
133.6     2.09E-02     0.0003     0.0008
153.39     1.42E-02     0.0002     0.0006
176.12     9.50E-03     0.0002     0.0004
202.21     6.40E-03     0.0001     0.0003
232.16     4.17E-03     0.00008     0.0002
266.56     2.97E-03     0.00007     0.0001
306.05     2.02E-03     0.00005     0.00009
359.39     1.32E-03     0.00003     0.00006
451.75     6.80E-04     0.00002     0.00004
582.46     3.80E-04     0.00002     0.00003
749.72     1.90E-04     0.00001     0.00002
1010.34     8.10E-05     0.000007     0.00001
#
#End
